Date,Closing_Price,Stock
2023-10-17 00:00:00-04:00,129.7708740234375,EOG
2023-10-18 00:00:00-04:00,131.18162536621094,EOG
2023-10-19 00:00:00-04:00,131.6357879638672,EOG
2023-10-20 00:00:00-04:00,128.73695373535156,EOG
2023-10-23 00:00:00-04:00,127.20057678222656,EOG
2023-10-24 00:00:00-04:00,125.55791473388672,EOG
2023-10-25 00:00:00-04:00,125.35498046875,EOG
2023-10-26 00:00:00-04:00,123.6253662109375,EOG
2023-10-27 00:00:00-04:00,121.74111938476562,EOG
2023-10-30 00:00:00-04:00,121.21932983398438,EOG
2023-10-31 00:00:00-04:00,121.99235534667969,EOG
2023-11-01 00:00:00-04:00,120.03081512451172,EOG
2023-11-02 00:00:00-04:00,124.3114013671875,EOG
2023-11-03 00:00:00-04:00,123.83794403076172,EOG
2023-11-06 00:00:00-05:00,122.15662384033203,EOG
2023-11-07 00:00:00-05:00,118.50409698486328,EOG
2023-11-08 00:00:00-05:00,117.12232208251953,EOG
2023-11-09 00:00:00-05:00,117.20929718017578,EOG
2023-11-10 00:00:00-05:00,118.56206512451172,EOG
2023-11-13 00:00:00-05:00,118.90992736816406,EOG
2023-11-14 00:00:00-05:00,120.90046691894531,EOG
2023-11-15 00:00:00-05:00,118.91959381103516,EOG
2023-11-16 00:00:00-05:00,116.6295166015625,EOG
2023-11-17 00:00:00-05:00,119.81822967529297,EOG
2023-11-20 00:00:00-05:00,121.00675201416016,EOG
2023-11-21 00:00:00-05:00,120.05980682373047,EOG
2023-11-22 00:00:00-05:00,119.01622009277344,EOG
2023-11-24 00:00:00-05:00,119.33509063720703,EOG
2023-11-27 00:00:00-05:00,118.85195922851562,EOG
2023-11-28 00:00:00-05:00,119.47036743164062,EOG
2023-11-29 00:00:00-05:00,119.0838623046875,EOG
2023-11-30 00:00:00-05:00,118.91959381103516,EOG
2023-12-01 00:00:00-05:00,119.43171691894531,EOG
2023-12-04 00:00:00-05:00,118.85195922851562,EOG
2023-12-05 00:00:00-05:00,117.83736419677734,EOG
2023-12-06 00:00:00-05:00,115.71155548095703,EOG
2023-12-07 00:00:00-05:00,114.3587646484375,EOG
2023-12-08 00:00:00-05:00,114.94820404052734,EOG
2023-12-11 00:00:00-05:00,115.18009948730469,EOG
2023-12-12 00:00:00-05:00,113.70169830322266,EOG
2023-12-13 00:00:00-05:00,114.48439025878906,EOG
2023-12-14 00:00:00-05:00,118.02716064453125,EOG
2023-12-15 00:00:00-05:00,117.54761505126953,EOG
2023-12-18 00:00:00-05:00,119.02540588378906,EOG
2023-12-19 00:00:00-05:00,119.91598510742188,EOG
2023-12-20 00:00:00-05:00,118.8394546508789,EOG
2023-12-21 00:00:00-05:00,118.4969253540039,EOG
2023-12-22 00:00:00-05:00,119.66152954101562,EOG
2023-12-26 00:00:00-05:00,121.64823150634766,EOG
2023-12-27 00:00:00-05:00,121.61886596679688,EOG
2023-12-28 00:00:00-05:00,118.74158477783203,EOG
2023-12-29 00:00:00-05:00,118.36968231201172,EOG
2024-01-02 00:00:00-05:00,119.00582122802734,EOG
2024-01-03 00:00:00-05:00,122.31372833251953,EOG
2024-01-04 00:00:00-05:00,118.43820190429688,EOG
2024-01-05 00:00:00-05:00,117.81185150146484,EOG
2024-01-08 00:00:00-05:00,115.25753021240234,EOG
2024-01-09 00:00:00-05:00,113.59380340576172,EOG
2024-01-10 00:00:00-05:00,112.5368423461914,EOG
2024-01-11 00:00:00-05:00,112.52706146240234,EOG
2024-01-12 00:00:00-05:00,113.57422637939453,EOG
2024-01-16 00:00:00-05:00,110.61502838134766,EOG
2024-01-17 00:00:00-05:00,109.12556457519531,EOG
2024-01-18 00:00:00-05:00,108.59290313720703,EOG
2024-01-19 00:00:00-05:00,108.67181396484375,EOG
2024-01-22 00:00:00-05:00,109.13542938232422,EOG
2024-01-23 00:00:00-05:00,108.86910247802734,EOG
2024-01-24 00:00:00-05:00,110.56571197509766,EOG
2024-01-25 00:00:00-05:00,113.28816986083984,EOG
2024-01-26 00:00:00-05:00,113.96879577636719,EOG
2024-01-29 00:00:00-05:00,113.39667510986328,EOG
2024-01-30 00:00:00-05:00,115.19193267822266,EOG
2024-01-31 00:00:00-05:00,112.24259185791016,EOG
2024-02-01 00:00:00-05:00,111.06877136230469,EOG
2024-02-02 00:00:00-05:00,109.34256744384766,EOG
2024-02-05 00:00:00-05:00,108.15888977050781,EOG
2024-02-06 00:00:00-05:00,110.35856628417969,EOG
2024-02-07 00:00:00-05:00,110.98986053466797,EOG
2024-02-08 00:00:00-05:00,111.52251434326172,EOG
2024-02-09 00:00:00-05:00,109.53985595703125,EOG
2024-02-12 00:00:00-05:00,111.31537628173828,EOG
2024-02-13 00:00:00-05:00,109.5201187133789,EOG
2024-02-14 00:00:00-05:00,109.50039672851562,EOG
2024-02-15 00:00:00-05:00,112.69633483886719,EOG
2024-02-16 00:00:00-05:00,112.01571655273438,EOG
2024-02-20 00:00:00-05:00,111.59156799316406,EOG
2024-02-21 00:00:00-05:00,114.77764129638672,EOG
2024-02-22 00:00:00-05:00,114.81710052490234,EOG
2024-02-23 00:00:00-05:00,110.33883666992188,EOG
2024-02-26 00:00:00-05:00,110.52626037597656,EOG
2024-02-27 00:00:00-05:00,112.39055633544922,EOG
2024-02-28 00:00:00-05:00,112.61742401123047,EOG
2024-02-29 00:00:00-05:00,112.90348052978516,EOG
2024-03-01 00:00:00-05:00,114.52117156982422,EOG
2024-03-04 00:00:00-05:00,114.25485229492188,EOG
2024-03-05 00:00:00-05:00,114.61981201171875,EOG
2024-03-06 00:00:00-05:00,114.90587615966797,EOG
2024-03-07 00:00:00-05:00,116.24737548828125,EOG
2024-03-08 00:00:00-05:00,117.10554504394531,EOG
2024-03-11 00:00:00-04:00,119.17699432373047,EOG
2024-03-12 00:00:00-04:00,119.19671630859375,EOG
2024-03-13 00:00:00-04:00,120.90319061279297,EOG
2024-03-14 00:00:00-04:00,122.10660552978516,EOG
2024-03-15 00:00:00-04:00,121.12020111083984,EOG
2024-03-18 00:00:00-04:00,121.88959503173828,EOG
2024-03-19 00:00:00-04:00,122.94503784179688,EOG
2024-03-20 00:00:00-04:00,123.99063110351562,EOG
2024-03-21 00:00:00-04:00,124.36546325683594,EOG
2024-03-22 00:00:00-04:00,123.14231872558594,EOG
2024-03-25 00:00:00-04:00,125.51954650878906,EOG
2024-03-26 00:00:00-04:00,124.06954193115234,EOG
2024-03-27 00:00:00-04:00,124.6712417602539,EOG
2024-03-28 00:00:00-04:00,126.10152435302734,EOG
2024-04-01 00:00:00-04:00,127.99540710449219,EOG
2024-04-02 00:00:00-04:00,130.4416961669922,EOG
2024-04-03 00:00:00-04:00,131.96075439453125,EOG
2024-04-04 00:00:00-04:00,132.2073516845703,EOG
2024-04-05 00:00:00-04:00,134.0913848876953,EOG
2024-04-08 00:00:00-04:00,133.6080322265625,EOG
2024-04-09 00:00:00-04:00,135.19613647460938,EOG
2024-04-10 00:00:00-04:00,136.07403564453125,EOG
2024-04-11 00:00:00-04:00,135.40330505371094,EOG
2024-04-12 00:00:00-04:00,133.4501953125,EOG
2024-04-15 00:00:00-04:00,131.47398376464844,EOG
2024-04-16 00:00:00-04:00,132.0400390625,EOG
2024-04-17 00:00:00-04:00,131.48390197753906,EOG
2024-04-18 00:00:00-04:00,130.8483428955078,EOG
2024-04-19 00:00:00-04:00,132.2485809326172,EOG
2024-04-22 00:00:00-04:00,132.97352600097656,EOG
2024-04-23 00:00:00-04:00,133.8673095703125,EOG
2024-04-24 00:00:00-04:00,134.66177368164062,EOG
2024-04-25 00:00:00-04:00,134.42343139648438,EOG
2024-04-26 00:00:00-04:00,134.76107788085938,EOG
2024-04-29 00:00:00-04:00,135.30728149414062,EOG
2024-04-30 00:00:00-04:00,131.21578979492188,EOG
2024-05-01 00:00:00-04:00,129.0508575439453,EOG
2024-05-02 00:00:00-04:00,130.8880615234375,EOG
2024-05-03 00:00:00-04:00,129.12039184570312,EOG
2024-05-06 00:00:00-04:00,129.5771942138672,EOG
2024-05-07 00:00:00-04:00,129.3587188720703,EOG
2024-05-08 00:00:00-04:00,128.93170166015625,EOG
2024-05-09 00:00:00-04:00,129.65664672851562,EOG
2024-05-10 00:00:00-04:00,129.1998291015625,EOG
2024-05-13 00:00:00-04:00,128.50466918945312,EOG
2024-05-14 00:00:00-04:00,128.53445434570312,EOG
2024-05-15 00:00:00-04:00,128.19680786132812,EOG
2024-05-16 00:00:00-04:00,127.034912109375,EOG
2024-05-17 00:00:00-04:00,129.0409393310547,EOG
2024-05-20 00:00:00-04:00,128.96148681640625,EOG
2024-05-21 00:00:00-04:00,128.00811767578125,EOG
2024-05-22 00:00:00-04:00,125.17784881591797,EOG
2024-05-23 00:00:00-04:00,123.17182159423828,EOG
2024-05-24 00:00:00-04:00,122.41708374023438,EOG
2024-05-28 00:00:00-04:00,124.97923278808594,EOG
2024-05-29 00:00:00-04:00,121.07642364501953,EOG
2024-05-30 00:00:00-04:00,121.40414428710938,EOG
2024-05-31 00:00:00-04:00,123.688232421875,EOG
2024-06-03 00:00:00-04:00,118.81220245361328,EOG
2024-06-04 00:00:00-04:00,118.97109985351562,EOG
2024-06-05 00:00:00-04:00,119.4775619506836,EOG
2024-06-06 00:00:00-04:00,120.371337890625,EOG
2024-06-07 00:00:00-04:00,119.3583984375,EOG
2024-06-10 00:00:00-04:00,120.74870300292969,EOG
2024-06-11 00:00:00-04:00,121.18566131591797,EOG
2024-06-12 00:00:00-04:00,120.09327697753906,EOG
2024-06-13 00:00:00-04:00,118.27593231201172,EOG
2024-06-14 00:00:00-04:00,117.42188262939453,EOG
2024-06-17 00:00:00-04:00,118.2560806274414,EOG
2024-06-18 00:00:00-04:00,118.67317199707031,EOG
2024-06-20 00:00:00-04:00,121.14593505859375,EOG
2024-06-21 00:00:00-04:00,121.20552825927734,EOG
2024-06-24 00:00:00-04:00,124.43304443359375,EOG
2024-06-25 00:00:00-04:00,124.68131256103516,EOG
2024-06-26 00:00:00-04:00,123.71802520751953,EOG
2024-06-27 00:00:00-04:00,123.688232421875,EOG
2024-06-28 00:00:00-04:00,124.99909973144531,EOG
2024-07-01 00:00:00-04:00,125.66445922851562,EOG
2024-07-02 00:00:00-04:00,125.77369689941406,EOG
2024-07-03 00:00:00-04:00,125.89286041259766,EOG
2024-07-05 00:00:00-04:00,124.07553100585938,EOG
2024-07-08 00:00:00-04:00,124.76074981689453,EOG
2024-07-09 00:00:00-04:00,124.80047607421875,EOG
2024-07-10 00:00:00-04:00,125.34667205810547,EOG
2024-07-11 00:00:00-04:00,127.2831802368164,EOG
2024-07-12 00:00:00-04:00,128.0577850341797,EOG
2024-07-15 00:00:00-04:00,131.732177734375,EOG
2024-07-16 00:00:00-04:00,130.61000061035156,EOG
2024-07-17 00:00:00-04:00,132.3800048828125,EOG
2024-07-18 00:00:00-04:00,132.22999572753906,EOG
2024-07-19 00:00:00-04:00,129.25,EOG
2024-07-22 00:00:00-04:00,126.91999816894531,EOG
2024-07-23 00:00:00-04:00,124.9000015258789,EOG
2024-07-24 00:00:00-04:00,125.0999984741211,EOG
2024-07-25 00:00:00-04:00,127.04000091552734,EOG
2024-07-26 00:00:00-04:00,127.1500015258789,EOG
2024-07-29 00:00:00-04:00,125.18000030517578,EOG
2024-07-30 00:00:00-04:00,126.1500015258789,EOG
2024-07-31 00:00:00-04:00,126.80000305175781,EOG
2024-08-01 00:00:00-04:00,123.11000061035156,EOG
2024-08-02 00:00:00-04:00,122.91999816894531,EOG
2024-08-05 00:00:00-04:00,123.12000274658203,EOG
2024-08-06 00:00:00-04:00,122.2699966430664,EOG
2024-08-07 00:00:00-04:00,123.12000274658203,EOG
2024-08-08 00:00:00-04:00,126.79000091552734,EOG
2024-08-09 00:00:00-04:00,126.52999877929688,EOG
2024-08-12 00:00:00-04:00,128.77000427246094,EOG
2024-08-13 00:00:00-04:00,126.36000061035156,EOG
2024-08-14 00:00:00-04:00,126.54000091552734,EOG
2024-08-15 00:00:00-04:00,128.1199951171875,EOG
2024-08-16 00:00:00-04:00,128.05999755859375,EOG
2024-08-19 00:00:00-04:00,128.24000549316406,EOG
2024-08-20 00:00:00-04:00,125.25,EOG
2024-08-21 00:00:00-04:00,124.9800033569336,EOG
2024-08-22 00:00:00-04:00,125.22000122070312,EOG
2024-08-23 00:00:00-04:00,126.9000015258789,EOG
2024-08-26 00:00:00-04:00,130.05999755859375,EOG
2024-08-27 00:00:00-04:00,128.55999755859375,EOG
2024-08-28 00:00:00-04:00,128.72000122070312,EOG
2024-08-29 00:00:00-04:00,129.97999572753906,EOG
2024-08-30 00:00:00-04:00,128.82000732421875,EOG
2024-09-03 00:00:00-04:00,123.62999725341797,EOG
2024-09-04 00:00:00-04:00,122.77999877929688,EOG
2024-09-05 00:00:00-04:00,121.55000305175781,EOG
2024-09-06 00:00:00-04:00,120.3499984741211,EOG
2024-09-09 00:00:00-04:00,120.5,EOG
2024-09-10 00:00:00-04:00,118.97000122070312,EOG
2024-09-11 00:00:00-04:00,117.9000015258789,EOG
2024-09-12 00:00:00-04:00,118.22000122070312,EOG
2024-09-13 00:00:00-04:00,119.37000274658203,EOG
2024-09-16 00:00:00-04:00,121.66999816894531,EOG
2024-09-17 00:00:00-04:00,123.19000244140625,EOG
2024-09-18 00:00:00-04:00,124.37999725341797,EOG
2024-09-19 00:00:00-04:00,125.19999694824219,EOG
2024-09-20 00:00:00-04:00,126.02999877929688,EOG
2024-09-23 00:00:00-04:00,127.7300033569336,EOG
2024-09-24 00:00:00-04:00,127.9000015258789,EOG
2024-09-25 00:00:00-04:00,124.55999755859375,EOG
2024-09-26 00:00:00-04:00,120.37000274658203,EOG
2024-09-27 00:00:00-04:00,122.44000244140625,EOG
2024-09-30 00:00:00-04:00,122.93000030517578,EOG
2024-10-01 00:00:00-04:00,126.95999908447266,EOG
2024-10-02 00:00:00-04:00,128.3300018310547,EOG
2024-10-03 00:00:00-04:00,130.7899932861328,EOG
2024-10-04 00:00:00-04:00,133.1199951171875,EOG
2024-10-07 00:00:00-04:00,134.24000549316406,EOG
2024-10-08 00:00:00-04:00,130.3699951171875,EOG
2024-10-09 00:00:00-04:00,130.9600067138672,EOG
2024-10-10 00:00:00-04:00,132.19000244140625,EOG
2024-10-11 00:00:00-04:00,132.4499969482422,EOG
2024-10-14 00:00:00-04:00,131.47000122070312,EOG
2024-10-15 00:00:00-04:00,127.27999877929688,EOG
